	time (s)     A(t) 		SEM 10 traj
   0.0000000e+00   1.0000000e+03   0.0000000e+00
   2.0000000e-05   9.8720000e+02   1.0934146e+00
   4.0000000e-05   9.7450000e+02   1.7904065e+00
   6.0000000e-05   9.6290000e+02   2.3591430e+00
   8.0000000e-05   9.5240000e+02   2.3437861e+00
   1.0000000e-04   9.4090000e+02   2.7384099e+00
   1.2000000e-04   9.2900000e+02   2.5905812e+00
   1.4000000e-04   9.1760000e+02   2.3860707e+00
   1.6000000e-04   9.0550000e+02   2.1768989e+00
   1.8000000e-04   8.9590000e+02   2.3918844e+00
   2.0000000e-04   8.8660000e+02   2.5438379e+00
   2.2000000e-04   8.7790000e+02   2.4333333e+00
   2.4000000e-04   8.6830000e+02   3.0259985e+00
   2.6000000e-04   8.5980000e+02   2.6195844e+00
   2.8000000e-04   8.5170000e+02   2.5822041e+00
   3.0000000e-04   8.4290000e+02   2.3259407e+00
   3.2000000e-04   8.3390000e+02   2.8807792e+00
   3.4000000e-04   8.2530000e+02   3.3864108e+00
   3.6000000e-04   8.1810000e+02   2.8846336e+00
   3.8000000e-04   8.1020000e+02   3.1439536e+00
   4.0000000e-04   8.0220000e+02   3.1119840e+00
   4.2000000e-04   7.9530000e+02   3.3732609e+00
   4.4000000e-04   7.9000000e+02   3.3598942e+00
   4.6000000e-04   7.8230000e+02   3.7209616e+00
   4.8000000e-04   7.7450000e+02   3.9951359e+00
   5.0000000e-04   7.6780000e+02   4.2105687e+00
   5.2000000e-04   7.6080000e+02   4.3071001e+00
   5.4000000e-04   7.5400000e+02   4.2687495e+00
   5.6000000e-04   7.4690000e+02   4.2673177e+00
   5.8000000e-04   7.3810000e+02   4.2699206e+00
   6.0000000e-04   7.3170000e+02   3.8673850e+00
   6.2000000e-04   7.2670000e+02   3.4060404e+00
   6.4000000e-04   7.1980000e+02   3.2788887e+00
   6.6000000e-04   7.1440000e+02   3.6368485e+00
   6.8000000e-04   7.0780000e+02   3.4441577e+00
   7.0000000e-04   7.0270000e+02   3.3368315e+00
   7.2000000e-04   6.9700000e+02   3.5962944e+00
   7.4000000e-04   6.9130000e+02   3.1589379e+00
   7.6000000e-04   6.8620000e+02   3.0615900e+00
   7.8000000e-04   6.7920000e+02   3.0324174e+00
   8.0000000e-04   6.7450000e+02   3.2050308e+00
   8.2000000e-04   6.6910000e+02   3.1143039e+00
   8.4000000e-04   6.6480000e+02   3.4953938e+00
   8.6000000e-04   6.5950000e+02   3.5316034e+00
   8.8000000e-04   6.5550000e+02   3.1420093e+00
   9.0000000e-04   6.5090000e+02   3.2777024e+00
   9.2000000e-04   6.4580000e+02   3.0140412e+00
   9.4000000e-04   6.4250000e+02   3.3739196e+00
   9.6000000e-04   6.3780000e+02   3.0904872e+00
   9.8000000e-04   6.3360000e+02   2.6339662e+00
   1.0000000e-03   6.3050000e+02   2.7818859e+00
   1.0200000e-03   6.2630000e+02   2.8325489e+00
   1.0400000e-03   6.2240000e+02   2.9747082e+00
   1.0600000e-03   6.1880000e+02   2.9806785e+00
   1.0800000e-03   6.1520000e+02   2.9806785e+00
   1.1000000e-03   6.1210000e+02   3.1071602e+00
   1.1200000e-03   6.0810000e+02   3.0603195e+00
   1.1400000e-03   6.0400000e+02   3.0623158e+00
   1.1600000e-03   5.9960000e+02   3.3605555e+00
   1.1800000e-03   5.9720000e+02   3.3724373e+00
   1.2000000e-03   5.9320000e+02   3.5080859e+00
   1.2200000e-03   5.8950000e+02   3.9249912e+00
   1.2400000e-03   5.8600000e+02   3.5559028e+00
   1.2600000e-03   5.8230000e+02   3.8036532e+00
   1.2800000e-03   5.7920000e+02   3.9265478e+00
   1.3000000e-03   5.7680000e+02   3.9009970e+00
   1.3200000e-03   5.7270000e+02   3.5278259e+00
   1.3400000e-03   5.6950000e+02   3.2463655e+00
   1.3600000e-03   5.6590000e+02   3.2709156e+00
   1.3800000e-03   5.6250000e+02   3.5598065e+00
   1.4000000e-03   5.6020000e+02   3.2584932e+00
   1.4200000e-03   5.5720000e+02   3.3426536e+00
   1.4400000e-03   5.5360000e+02   3.5907288e+00
   1.4600000e-03   5.4910000e+02   3.7784477e+00
   1.4800000e-03   5.4570000e+02   3.9215926e+00
   1.5000000e-03   5.4240000e+02   3.7777124e+00
   1.5200000e-03   5.3870000e+02   4.0798965e+00
   1.5400000e-03   5.3590000e+02   4.2359572e+00
   1.5600000e-03   5.3230000e+02   4.3513727e+00
   1.5800000e-03   5.2880000e+02   4.6062759e+00
   1.6000000e-03   5.2570000e+02   4.8626696e+00
   1.6200000e-03   5.2330000e+02   4.6117001e+00
   1.6400000e-03   5.2070000e+02   4.4648006e+00
   1.6600000e-03   5.1910000e+02   4.3955786e+00
   1.6800000e-03   5.1700000e+02   4.3563491e+00
   1.7000000e-03   5.1410000e+02   4.4207842e+00
   1.7200000e-03   5.1060000e+02   4.1020320e+00
   1.7400000e-03   5.0810000e+02   4.0095719e+00
   1.7600000e-03   5.0610000e+02   4.1698654e+00
   1.7800000e-03   5.0440000e+02   4.3492017e+00
   1.8000000e-03   5.0080000e+02   4.2421169e+00
   1.8200000e-03   4.9860000e+02   4.4577024e+00
   1.8400000e-03   4.9690000e+02   4.2412000e+00
   1.8600000e-03   4.9450000e+02   4.3518834e+00
   1.8800000e-03   4.9210000e+02   4.3778483e+00
   1.9000000e-03   4.8910000e+02   4.2385794e+00
   1.9200000e-03   4.8680000e+02   4.2812252e+00
   1.9400000e-03   4.8460000e+02   4.6000000e+00
   1.9600000e-03   4.8280000e+02   4.3989898e+00
   1.9800000e-03   4.8130000e+02   4.4846652e+00
   2.0000000e-03   4.7860000e+02   4.2640617e+00
   2.0200000e-03   4.7580000e+02   4.3225507e+00
   2.0400000e-03   4.7350000e+02   4.4727570e+00
   2.0600000e-03   4.7100000e+02   4.6188022e+00
   2.0800000e-03   4.6830000e+02   4.7563992e+00
   2.1000000e-03   4.6590000e+02   4.4358389e+00
   2.1200000e-03   4.6340000e+02   4.4100894e+00
   2.1400000e-03   4.6080000e+02   4.2760314e+00
   2.1600000e-03   4.5800000e+02   4.1553179e+00
   2.1800000e-03   4.5650000e+02   4.0722639e+00
   2.2000000e-03   4.5470000e+02   4.2610640e+00
   2.2200000e-03   4.5290000e+02   4.0591461e+00
   2.2400000e-03   4.5170000e+02   4.2033056e+00
   2.2600000e-03   4.5030000e+02   4.3051649e+00
   2.2800000e-03   4.4800000e+02   4.2031734e+00
   2.3000000e-03   4.4680000e+02   4.1413900e+00
   2.3200000e-03   4.4530000e+02   4.2610640e+00
   2.3400000e-03   4.4410000e+02   3.9733837e+00
   2.3600000e-03   4.4320000e+02   3.9994444e+00
   2.3800000e-03   4.4200000e+02   3.9721251e+00
   2.4000000e-03   4.4000000e+02   3.7148351e+00
   2.4200000e-03   4.3850000e+02   3.6247605e+00
   2.4400000e-03   4.3720000e+02   3.5677568e+00
   2.4600000e-03   4.3530000e+02   3.4223124e+00
   2.4800000e-03   4.3350000e+02   3.4001634e+00
   2.5000000e-03   4.3260000e+02   3.3770467e+00
   2.5200000e-03   4.3030000e+02   3.4158129e+00
   2.5400000e-03   4.2960000e+02   3.4357597e+00
   2.5600000e-03   4.2730000e+02   3.5591822e+00
   2.5800000e-03   4.2600000e+02   3.7564759e+00
   2.6000000e-03   4.2430000e+02   3.9610605e+00
   2.6200000e-03   4.2350000e+02   4.2694002e+00
   2.6400000e-03   4.2150000e+02   4.1666667e+00
   2.6600000e-03   4.2040000e+02   3.9333333e+00
   2.6800000e-03   4.1880000e+02   4.2105687e+00
   2.7000000e-03   4.1760000e+02   4.1718634e+00
   2.7200000e-03   4.1640000e+02   4.2168972e+00
   2.7400000e-03   4.1480000e+02   4.2578033e+00
   2.7600000e-03   4.1300000e+02   4.3919118e+00
   2.7800000e-03   4.1180000e+02   4.4517163e+00
   2.8000000e-03   4.1040000e+02   4.3184359e+00
   2.8200000e-03   4.0900000e+02   4.3512450e+00
   2.8400000e-03   4.0740000e+02   4.4800794e+00
   2.8600000e-03   4.0640000e+02   4.3107102e+00
   2.8800000e-03   4.0440000e+02   4.3466462e+00
   2.9000000e-03   4.0390000e+02   4.3396108e+00
   2.9200000e-03   4.0220000e+02   4.5504579e+00
   2.9400000e-03   4.0040000e+02   4.2353014e+00
   2.9600000e-03   3.9950000e+02   4.0722639e+00
   2.9800000e-03   3.9810000e+02   4.2017192e+00
   3.0000000e-03   3.9660000e+02   4.2379240e+00
   3.0200000e-03   3.9440000e+02   4.3873556e+00
   3.0400000e-03   3.9350000e+02   4.3595362e+00
   3.0600000e-03   3.9160000e+02   4.1236446e+00
   3.0800000e-03   3.9020000e+02   4.0683057e+00
   3.1000000e-03   3.8920000e+02   4.0792156e+00
   3.1200000e-03   3.8820000e+02   4.0518857e+00
   3.1400000e-03   3.8760000e+02   3.9163475e+00
   3.1600000e-03   3.8660000e+02   3.9135094e+00
   3.1800000e-03   3.8520000e+02   4.0436507e+00
   3.2000000e-03   3.8410000e+02   4.0012498e+00
   3.2200000e-03   3.8300000e+02   4.1365579e+00
   3.2400000e-03   3.8200000e+02   4.0824829e+00
   3.2600000e-03   3.8040000e+02   4.3645033e+00
   3.2800000e-03   3.7980000e+02   4.3609377e+00
   3.3000000e-03   3.7980000e+02   4.3071001e+00
   3.3200000e-03   3.7870000e+02   4.3257626e+00
   3.3400000e-03   3.7770000e+02   4.1447423e+00
   3.3600000e-03   3.7670000e+02   4.2349078e+00
   3.3800000e-03   3.7520000e+02   4.2630193e+00
   3.4000000e-03   3.7480000e+02   4.2026447e+00
   3.4200000e-03   3.7330000e+02   3.9722650e+00
   3.4400000e-03   3.7200000e+02   3.9805081e+00
   3.4600000e-03   3.7020000e+02   4.2026447e+00
   3.4800000e-03   3.6900000e+02   4.0797603e+00
   3.5000000e-03   3.6770000e+02   4.1016257e+00
   3.5200000e-03   3.6740000e+02   4.0911829e+00
   3.5400000e-03   3.6660000e+02   4.3210081e+00
   3.5600000e-03   3.6560000e+02   4.1904654e+00
   3.5800000e-03   3.6410000e+02   3.9340395e+00
   3.6000000e-03   3.6310000e+02   3.9956921e+00
   3.6200000e-03   3.6180000e+02   4.2290004e+00
   3.6400000e-03   3.6110000e+02   4.1645328e+00
   3.6600000e-03   3.6100000e+02   4.2031734e+00
   3.6800000e-03   3.6030000e+02   4.0498285e+00
   3.7000000e-03   3.5920000e+02   3.7912179e+00
   3.7200000e-03   3.5740000e+02   3.9078269e+00
   3.7400000e-03   3.5710000e+02   4.0755368e+00
   3.7600000e-03   3.5620000e+02   4.0049969e+00
   3.7800000e-03   3.5540000e+02   3.9586754e+00
   3.8000000e-03   3.5460000e+02   3.9106692e+00
   3.8200000e-03   3.5370000e+02   3.8385472e+00
   3.8400000e-03   3.5350000e+02   3.7749172e+00
   3.8600000e-03   3.5270000e+02   3.9300834e+00
   3.8800000e-03   3.5150000e+02   3.8506854e+00
   3.9000000e-03   3.5020000e+02   3.9208843e+00
   3.9200000e-03   3.4920000e+02   3.8666667e+00
   3.9400000e-03   3.4820000e+02   4.0326446e+00
   3.9600000e-03   3.4710000e+02   4.1884763e+00
   3.9800000e-03   3.4580000e+02   4.1225666e+00
   4.0000000e-03   3.4540000e+02   3.9838563e+00
   4.0200000e-03   3.4420000e+02   4.0546270e+00
   4.0400000e-03   3.4380000e+02   4.0764909e+00
   4.0600000e-03   3.4270000e+02   3.9300834e+00
   4.0800000e-03   3.4190000e+02   3.9705863e+00
   4.1000000e-03   3.4040000e+02   3.8273867e+00
   4.1200000e-03   3.3950000e+02   3.7631252e+00
   4.1400000e-03   3.3830000e+02   3.7149847e+00
   4.1600000e-03   3.3770000e+02   3.8385472e+00
   4.1800000e-03   3.3660000e+02   3.8302886e+00
   4.2000000e-03   3.3600000e+02   3.6270588e+00
   4.2200000e-03   3.3460000e+02   3.2836294e+00
   4.2400000e-03   3.3450000e+02   3.0267327e+00
   4.2600000e-03   3.3370000e+02   2.8984670e+00
   4.2800000e-03   3.3330000e+02   2.8246927e+00
   4.3000000e-03   3.3240000e+02   2.8526791e+00
   4.3200000e-03   3.3180000e+02   2.7840817e+00
   4.3400000e-03   3.3170000e+02   2.9853345e+00
   4.3600000e-03   3.3150000e+02   2.9860788e+00
   4.3800000e-03   3.3130000e+02   3.0333333e+00
   4.4000000e-03   3.2990000e+02   3.0384572e+00
   4.4200000e-03   3.2890000e+02   2.8961660e+00
   4.4400000e-03   3.2840000e+02   2.8174062e+00
   4.4600000e-03   3.2800000e+02   2.9664794e+00
   4.4800000e-03   3.2780000e+02   2.9619813e+00
   4.5000000e-03   3.2730000e+02   3.0296681e+00
   4.5200000e-03   3.2680000e+02   2.6616620e+00
   4.5400000e-03   3.2560000e+02   2.5263060e+00
   4.5600000e-03   3.2510000e+02   2.4695929e+00
   4.5800000e-03   3.2500000e+02   2.2558566e+00
   4.6000000e-03   3.2520000e+02   1.7751369e+00
   4.6200000e-03   3.2490000e+02   1.8040079e+00
   4.6400000e-03   3.2490000e+02   1.6960739e+00
   4.6600000e-03   3.2460000e+02   1.8985374e+00
   4.6800000e-03   3.2360000e+02   2.0504742e+00
   4.7000000e-03   3.2290000e+02   1.9913703e+00
   4.7200000e-03   3.2320000e+02   2.2939534e+00
   4.7400000e-03   3.2200000e+02   2.4630604e+00
   4.7600000e-03   3.2230000e+02   2.3525400e+00
   4.7800000e-03   3.2220000e+02   2.5377155e+00
   4.8000000e-03   3.2160000e+02   2.8448784e+00
   4.8200000e-03   3.2090000e+02   3.0090604e+00
   4.8400000e-03   3.2030000e+02   2.9554094e+00
   4.8600000e-03   3.1960000e+02   3.1169786e+00
   4.8800000e-03   3.1940000e+02   3.1134118e+00
   4.9000000e-03   3.1890000e+02   2.9681644e+00
   4.9200000e-03   3.1810000e+02   3.2504701e+00
   4.9400000e-03   3.1740000e+02   3.5030146e+00
   4.9600000e-03   3.1740000e+02   3.2359096e+00
   4.9800000e-03   3.1720000e+02   3.0066593e+00
   5.0000000e-03   3.1590000e+02   3.1638584e+00
   5.0200000e-03   3.1490000e+02   3.2709156e+00
   5.0400000e-03   3.1440000e+02   3.2903900e+00
   5.0600000e-03   3.1430000e+02   3.1128765e+00
   5.0800000e-03   3.1380000e+02   3.4538224e+00
   5.1000000e-03   3.1280000e+02   3.3492951e+00
   5.1200000e-03   3.1190000e+02   3.4300956e+00
   5.1400000e-03   3.1180000e+02   3.5333333e+00
   5.1600000e-03   3.1150000e+02   3.4197141e+00
   5.1800000e-03   3.1090000e+02   3.3114280e+00
   5.2000000e-03   3.1060000e+02   3.6092474e+00
   5.2200000e-03   3.1040000e+02   3.7034518e+00
   5.2400000e-03   3.0900000e+02   3.6453928e+00
   5.2600000e-03   3.0750000e+02   3.5815887e+00
   5.2800000e-03   3.0670000e+02   3.7919505e+00
   5.3000000e-03   3.0640000e+02   3.7688784e+00
   5.3200000e-03   3.0610000e+02   3.8454880e+00
   5.3400000e-03   3.0540000e+02   3.9389790e+00
   5.3600000e-03   3.0530000e+02   3.8903013e+00
   5.3800000e-03   3.0470000e+02   4.0250604e+00
   5.4000000e-03   3.0410000e+02   3.9593771e+00
   5.4200000e-03   3.0420000e+02   3.8058435e+00
   5.4400000e-03   3.0350000e+02   3.9391200e+00
   5.4600000e-03   3.0230000e+02   3.8414407e+00
   5.4800000e-03   3.0190000e+02   3.7042018e+00
   5.5000000e-03   3.0140000e+02   3.7570674e+00
   5.5200000e-03   3.0090000e+02   3.7843244e+00
   5.5400000e-03   3.0100000e+02   3.7297602e+00
   5.5600000e-03   3.0040000e+02   3.6854067e+00
   5.5800000e-03   2.9940000e+02   3.4357597e+00
   5.6000000e-03   2.9890000e+02   3.4106044e+00
   5.6200000e-03   2.9940000e+02   3.6276714e+00
   5.6400000e-03   2.9930000e+02   3.9215926e+00
   5.6600000e-03   2.9820000e+02   4.0243702e+00
   5.6800000e-03   2.9730000e+02   4.3051649e+00
   5.7000000e-03   2.9730000e+02   4.2610640e+00
   5.7200000e-03   2.9660000e+02   4.3055520e+00
   5.7400000e-03   2.9670000e+02   4.5681263e+00
   5.7600000e-03   2.9660000e+02   4.4875135e+00
   5.7800000e-03   2.9720000e+02   4.4417214e+00
   5.8000000e-03   2.9680000e+02   4.3276886e+00
   5.8200000e-03   2.9530000e+02   4.0934908e+00
   5.8400000e-03   2.9540000e+02   4.3543082e+00
   5.8600000e-03   2.9470000e+02   4.4122305e+00
   5.8800000e-03   2.9510000e+02   4.3676844e+00
   5.9000000e-03   2.9480000e+02   4.1734611e+00
   5.9200000e-03   2.9500000e+02   4.1739936e+00
   5.9400000e-03   2.9460000e+02   4.0830272e+00
   5.9600000e-03   2.9380000e+02   4.1601282e+00
   5.9800000e-03   2.9300000e+02   4.3101946e+00
   6.0000000e-03   2.9300000e+02   4.3537978e+00
   6.0200000e-03   2.9240000e+02   4.3517557e+00
   6.0400000e-03   2.9150000e+02   4.2772005e+00
   6.0600000e-03   2.9100000e+02   4.2110965e+00
   6.0800000e-03   2.9020000e+02   4.2237424e+00
   6.1000000e-03   2.8980000e+02   4.4492197e+00
   6.1200000e-03   2.8950000e+02   4.3005168e+00
   6.1400000e-03   2.8950000e+02   4.4876373e+00
   6.1600000e-03   2.8900000e+02   4.4820630e+00
   6.1800000e-03   2.8790000e+02   4.3778483e+00
   6.2000000e-03   2.8790000e+02   4.3447286e+00
   6.2200000e-03   2.8780000e+02   4.3096790e+00
   6.2400000e-03   2.8700000e+02   4.0933550e+00
   6.2600000e-03   2.8700000e+02   4.2739521e+00
   6.2800000e-03   2.8600000e+02   4.0987803e+00
   6.3000000e-03   2.8530000e+02   4.1232404e+00
   6.3200000e-03   2.8580000e+02   3.9994444e+00
   6.3400000e-03   2.8460000e+02   3.9838563e+00
   6.3600000e-03   2.8490000e+02   3.8339130e+00
   6.3800000e-03   2.8440000e+02   3.7333333e+00
   6.4000000e-03   2.8450000e+02   3.7245432e+00
   6.4200000e-03   2.8430000e+02   3.7684362e+00
   6.4400000e-03   2.8510000e+02   3.7960506e+00
   6.4600000e-03   2.8520000e+02   3.7440323e+00
   6.4800000e-03   2.8480000e+02   3.5708698e+00
   6.5000000e-03   2.8450000e+02   3.5722697e+00
   6.5200000e-03   2.8410000e+02   3.3147817e+00
   6.5400000e-03   2.8380000e+02   3.4762688e+00
   6.5600000e-03   2.8360000e+02   3.6823905e+00
   6.5800000e-03   2.8340000e+02   3.6763508e+00
   6.6000000e-03   2.8350000e+02   3.7660766e+00
   6.6200000e-03   2.8340000e+02   3.7392810e+00
   6.6400000e-03   2.8280000e+02   3.7558843e+00
   6.6600000e-03   2.8290000e+02   3.6223074e+00
   6.6800000e-03   2.8210000e+02   3.5791060e+00
   6.7000000e-03   2.8130000e+02   3.7209616e+00
   6.7200000e-03   2.8120000e+02   3.6992492e+00
   6.7400000e-03   2.8030000e+02   3.6698471e+00
   6.7600000e-03   2.8070000e+02   3.7654865e+00
   6.7800000e-03   2.8090000e+02   3.5884073e+00
   6.8000000e-03   2.8060000e+02   3.7214095e+00
   6.8200000e-03   2.8130000e+02   3.5840697e+00
   6.8400000e-03   2.8120000e+02   3.7142369e+00
   6.8600000e-03   2.8140000e+02   3.8964371e+00
   6.8800000e-03   2.8050000e+02   3.9306488e+00
   6.9000000e-03   2.8010000e+02   3.7370517e+00
   6.9200000e-03   2.8030000e+02   3.7179744e+00
   6.9400000e-03   2.8040000e+02   3.9754804e+00
   6.9600000e-03   2.8060000e+02   3.8620662e+00
   6.9800000e-03   2.8050000e+02   4.0448870e+00
   7.0000000e-03   2.8050000e+02   4.0831633e+00
   7.0200000e-03   2.8000000e+02   4.0496913e+00
   7.0400000e-03   2.8080000e+02   3.9038443e+00
   7.0600000e-03   2.8090000e+02   3.9170567e+00
   7.0800000e-03   2.8130000e+02   3.9470101e+00
   7.1000000e-03   2.8160000e+02   3.8447656e+00
   7.1200000e-03   2.8120000e+02   3.9095325e+00
   7.1400000e-03   2.8110000e+02   4.0178767e+00
   7.1600000e-03   2.8080000e+02   4.1090686e+00
   7.1800000e-03   2.8090000e+02   4.1000000e+00
   7.2000000e-03   2.8040000e+02   4.0721275e+00
   7.2200000e-03   2.7990000e+02   4.1081220e+00
   7.2400000e-03   2.7970000e+02   4.0333333e+00
   7.2600000e-03   2.7940000e+02   4.0721275e+00
   7.2800000e-03   2.7960000e+02   3.9305075e+00
   7.3000000e-03   2.7910000e+02   3.7191696e+00
   7.3200000e-03   2.7930000e+02   3.7890192e+00
   7.3400000e-03   2.7890000e+02   3.8942978e+00
   7.3600000e-03   2.7930000e+02   3.6789189e+00
   7.3800000e-03   2.7930000e+02   3.5309741e+00
   7.4000000e-03   2.7870000e+02   3.5088776e+00
   7.4200000e-03   2.7810000e+02   3.3414900e+00
   7.4400000e-03   2.7750000e+02   3.4423829e+00
   7.4600000e-03   2.7730000e+02   3.4190642e+00
   7.4800000e-03   2.7710000e+02   3.3613820e+00
   7.5000000e-03   2.7650000e+02   3.4359214e+00
   7.5200000e-03   2.7700000e+02   3.5808131e+00
   7.5400000e-03   2.7740000e+02   3.3273279e+00
   7.5600000e-03   2.7700000e+02   3.3598942e+00
   7.5800000e-03   2.7610000e+02   3.2844753e+00
   7.6000000e-03   2.7630000e+02   3.4287996e+00
   7.6200000e-03   2.7590000e+02   3.2844753e+00
   7.6400000e-03   2.7550000e+02   3.2360813e+00
   7.6600000e-03   2.7550000e+02   3.2600273e+00
   7.6800000e-03   2.7570000e+02   3.3000000e+00
   7.7000000e-03   2.7520000e+02   3.3193038e+00
   7.7200000e-03   2.7500000e+02   3.5777088e+00
   7.7400000e-03   2.7470000e+02   3.5591822e+00
   7.7600000e-03   2.7460000e+02   3.5596504e+00
   7.7800000e-03   2.7520000e+02   3.6721172e+00
   7.8000000e-03   2.7550000e+02   3.8391261e+00
   7.8200000e-03   2.7570000e+02   3.7179744e+00
   7.8400000e-03   2.7520000e+02   3.5832946e+00
   7.8600000e-03   2.7540000e+02   3.6672727e+00
   7.8800000e-03   2.7610000e+02   3.6161674e+00
   7.9000000e-03   2.7610000e+02   3.6558933e+00
   7.9200000e-03   2.7630000e+02   3.5964489e+00
   7.9400000e-03   2.7630000e+02   3.5404017e+00
   7.9600000e-03   2.7580000e+02   3.4762688e+00
   7.9800000e-03   2.7570000e+02   3.2181775e+00
   8.0000000e-03   2.7560000e+02   3.4097898e+00
   8.0200000e-03   2.7540000e+02   3.2903900e+00
   8.0400000e-03   2.7510000e+02   3.4751499e+00
   8.0600000e-03   2.7470000e+02   3.2898835e+00
   8.0800000e-03   2.7410000e+02   3.3314995e+00
   8.1000000e-03   2.7430000e+02   3.4449641e+00
   8.1200000e-03   2.7420000e+02   3.2345359e+00
